Time (min),Drawdown (m)
0.072,0.001
0.105,0.002
0.155,0.004
0.222,0.006
0.322,0.008
0.472,0.009
0.688,0.01
1.005,0.011
1.472,0.012
2.238,0.014
3.238,0.016
4.738,0.019
6.738,0.022
10.072,0.027
15.905,0.033
21.905,0.035
31.905,0.039
46.905,0.045
67.905,0.052
100.91,0.062
150.91,0.073
220.91,0.084
351.9,0.101
500.9,0.11
687.9,0.119
1001.9,0.131
1481.9,0.14
2202.9,0.149
3103.9,0.155
4336.9,0.165
