Time (min),Drawdown (m)
1,0.027
2,0.067
3,0.091
4,0.11
5,0.119
6,0.128
7,0.134
8,0.14
9,0.143
10,0.146
15,0.155
20,0.162
30,0.171
40,0.183
50,0.201
60,0.213
70,0.229
80,0.244
90,0.253
100,0.265
150,0.308
200,0.344
300,0.384
400,0.418
500,0.433
600,0.469
700,0.488
800,0.506
900,0.518
1000,0.53
1480,0.582
